# Time / fs         Re[k_IC(t)]         Im[k_IC(t)]
0.000000000000000000e+00 1.082083829301244710e-09 0.000000000000000000e+00
1.220703124999770045e-01 1.078272590974198109e-09 -7.732961182207475731e-11
2.441406249999540090e-01 1.066921927212614529e-09 -1.536841429889382688e-10
3.662109374999309996e-01 1.048275023689118585e-09 -2.281259591162627086e-10
4.882812500000839884e-01 1.022718652998169219e-09 -2.997875485303964411e-10
6.103515625000609512e-01 9.907593870076954040e-10 -3.678962944660295088e-10
7.324218750000379696e-01 9.529964042166263856e-10 -4.317903570673536808e-10
8.544921875000149880e-01 9.100941004895628870e-10 -4.909263140090383534e-10
9.765624999999920064e-01 8.627566873356280509e-10 -5.448800475591460389e-10
1.098632812499968914e+00 8.117060107653689126e-10 -5.933426018117952458e-10
1.220703124999946043e+00 7.576631040074932023e-10 -6.361126377392900147e-10
1.342773437499922951e+00 7.013334950810633425e-10 -6.730868733975165812e-10
1.464843750000075939e+00 6.433959752630008663e-10 -7.042496106692565750e-10
1.586914062500053069e+00 5.844943495457221849e-10 -7.296621625423567219e-10
1.708984375000029976e+00 5.252316022889309172e-10 -7.494527249175771100e-10
1.831054687500007105e+00 4.661658996508967874e-10 -7.638069943510478846e-10
1.953124999999984013e+00 4.078079008467082412e-10 -7.729596269257829354e-10
2.075195312499960920e+00 3.506189497334450298e-10 -7.771864737736631705e-10
2.197265624999937828e+00 2.950098504676830085e-10 -7.767974256338121019e-10
2.319335937499915179e+00 2.413400750703156658e-10 -7.721296583725192863e-10
2.441406250000067946e+00 1.899173826184370899e-10 -7.635410917132683010e-10
2.563476562500044853e+00 1.409979270054147791e-10 -7.514039422656994847e-10
2.685546875000022204e+00 9.478697772945400164e-11 -7.360983478953805477e-10
2.807617187499999112e+00 5.144037263796711265e-11 -7.180061378948625176e-10
2.929687499999976019e+00 1.106677186807642757e-11 -6.975048991033163959e-10
3.051757812499952927e+00 -2.626929381212022799e-11 -6.749625270838150898e-10
3.173828124999929834e+00 -6.054366852584364244e-11 -6.507324495747950864e-10
3.295898437500083045e+00 -9.176826755302076030e-11 -6.251496724817428792e-10
3.417968750000059952e+00 -1.199864251609206615e-10 -5.985277388648095494e-10
3.540039062500036859e+00 -1.452681099004300344e-10 -5.711566229446333805e-10
3.662109375000014211e+00 -1.677052118145840378e-10 -5.433015167117437808e-10
3.784179687499991118e+00 -1.874070745635341952e-10 -5.152024151179157791e-10
3.906249999999968026e+00 -2.044964022531052689e-10 -4.870743715181236286e-10
4.028320312499944933e+00 -2.191056236577134516e-10 -4.591082786396029648e-10
4.150390624999921840e+00 -2.313737518857354085e-10 -4.314720297733424886e-10
4.272460937500074607e+00 -2.414437396352734328e-10 -4.043119264763488204e-10
4.394531250000052403e+00 -2.494603013113845126e-10 -3.777542186893568706e-10
4.516601562500029310e+00 -2.555681540316561342e-10 -3.519066868603063940e-10
4.638671875000006217e+00 -2.599106193144030395e-10 -3.268602000893574347e-10
4.760742187499983125e+00 -2.626285246135329431e-10 -3.026902069528781963e-10
4.882812499999960032e+00 -2.638593470087765656e-10 -2.794581348601240166e-10
5.004882812499936939e+00 -2.637365483425121330e-10 -2.572126886720381165e-10
5.126953124999913847e+00 -2.623890600906584894e-10 -2.359910496745517877e-10
5.249023437500066613e+00 -2.599408857174181363e-10 -2.158199821843216771e-10
5.371093750000044409e+00 -2.565107970172799995e-10 -1.967168577726012536e-10
5.493164062500021316e+00 -2.522121082298503338e-10 -1.786906072179808843e-10
5.615234374999998224e+00 -2.471525171588255986e-10 -1.617426087832700481e-10
5.737304687499975131e+00 -2.414340061100267692e-10 -1.458675191113122526e-10
5.859374999999952038e+00 -2.351527974133756942e-10 -1.310540506435480168e-10
5.981445312499928946e+00 -2.283993589920514205e-10 -1.172856974591408489e-10
6.103515625000081712e+00 -2.212584553299577066e-10 -1.045414100716978003e-10
6.225585937500058620e+00 -2.138092386860466387e-10 -9.279621907117041352e-11
6.347656250000036415e+00 -2.061253748532425098e-10 -8.202180747962649428e-11
6.469726562500013323e+00 -1.982751973966597276e-10 -7.218703213134135726e-11
6.591796874999990230e+00 -1.903218842499539449e-10 -6.325839507932015262e-11
6.713867187499967137e+00 -1.823236508198044335e-10 -5.520046677395939014e-11
6.835937499999944045e+00 -1.743339542862720383e-10 -4.797626339440878264e-11
6.958007812499920952e+00 -1.664017044837951831e-10 -4.154758114021709243e-11
7.080078125000073719e+00 -1.585714774784860062e-10 -3.587529047526305573e-11
7.202148437500050626e+00 -1.508837286062411946e-10 -3.091959328280852056e-11
7.324218750000028422e+00 -1.433750022162902790e-10 -2.664024571077686207e-11
7.446289062500005329e+00 -1.360781356340432965e-10 -2.299674926029170737e-11
7.568359374999982236e+00 -1.290224549194328792e-10 -1.994851250488453425e-11
7.690429687499959144e+00 -1.222339599058533649e-10 -1.745498582001041437e-11
7.812499999999936051e+00 -1.157354958499345899e-10 -1.547577171996307651e-11
7.934570312499912959e+00 -1.095469089196270006e-10 -1.397071386894982709e-11
8.056640625000065725e+00 -1.036851828211282388e-10 -1.289996853280100542e-11
8.178710937500042633e+00 -9.816455422722186670e-11 -1.222406309522072055e-11
8.300781250000019540e+00 -9.299660540442838943e-11 -1.190394716015429911e-11
8.422851562499996447e+00 -8.819033358335793383e-11 -1.190104254868275507e-11
8.544921874999973355e+00 -8.375219815592066060e-11 -1.217729900673442315e-11
8.666992187499950262e+00 -7.968614863330340751e-11 -1.269526250518190930e-11
8.789062499999927169e+00 -7.599363831444696540e-11 -1.341816249988058194e-11
8.911132812500081712e+00 -7.267363059897369013e-11 -1.431002333920475417e-11
9.033203125000058620e+00 -6.972260659805658274e-11 -1.533580314308861633e-11
9.155273437500035527e+00 -6.713458390738132511e-11 -1.646156099553520879e-11
9.277343750000012434e+00 -6.490115688250842172e-11 -1.765465034420931193e-11
9.399414062499989342e+00 -6.301156832133503141e-11 -1.888393332036442673e-11
9.521484374999966249e+00 -6.145282101346415943e-11 -2.012000757904840228e-11
9.643554687499943157e+00 -6.020983516591705674e-11 -2.133543455064531427e-11
9.765624999999920064e+00 -5.926565437962297886e-11 -2.250495602977498126e-11
9.887695312500072831e+00 -5.860169886994391904e-11 -2.360568510714712499e-11
1.000976562500004974e+01 -5.819806034060193891e-11 -2.461725779452071847e-11
1.013183593750002665e+01 -5.803382875386522820e-11 -2.552193340540668919e-11
1.025390625000000355e+01 -5.808743764654858463e-11 -2.630463479272959204e-11
1.037597656249998046e+01 -5.833701206135450270e-11 -2.695292371084628213e-11
1.049804687499995737e+01 -5.876070196578742593e-11 -2.745691151317790041e-11
1.062011718749993427e+01 -5.933698446157227738e-11 -2.780911064348816361e-11
1.074218750000008882e+01 -6.004492022410891273e-11 -2.800423737319547109e-11
1.086425781250006573e+01 -6.086435333720589848e-11 -2.803898040382043097e-11
1.098632812500004263e+01 -6.177604868688894410e-11 -2.791175276715728258e-11
1.110839843750001954e+01 -6.276176685387973765e-11 -2.762244551099496904e-11
1.123046874999999645e+01 -6.380428236897779857e-11 -2.717220073342703627e-11
1.135253906249997335e+01 -6.488735657582513037e-11 -2.656321863025617945e-11
1.147460937499995026e+01 -6.599568050788715669e-11 -2.579860860117764556e-11
1.159667968749992717e+01 -6.711480556660604330e-11 -2.488228860938892505e-11
1.171875000000007994e+01 -6.823108001384092532e-11 -2.381893058309582880e-11
1.184082031250005684e+01 -6.933160724935753602e-11 -2.261394347626650001e-11
1.196289062500003375e+01 -7.040423771040232368e-11 -2.127348047479047270e-11
1.208496093750001066e+01 -7.143760047024418922e-11 -1.980445345386255467e-11
1.220703124999998757e+01 -7.242117393449194794e-11 -1.821453667517454496e-11
1.232910156249996447e+01 -7.334538830608046350e-11 -1.651214308867704380e-11
1.245117187499994138e+01 -7.420174662818011103e-11 -1.470636037197182119e-11
1.257324218749991829e+01 -7.498294705566140749e-11 -1.280683956426685267e-11
1.269531250000007283e+01 -7.568298718472063921e-11 -1.082363610420941862e-11
1.281738281250004974e+01 -7.629723211903572571e-11 -8.767010334665735923e-12
1.293945312500002665e+01 -7.682243143905462242e-11 -6.647201089651145798e-12
1.306152343750000355e+01 -7.725667596650618437e-11 -4.474190891707686477e-12
1.318359374999998046e+01 -7.759929245088558008e-11 -2.257483825549001122e-12
1.330566406249995737e+01 -7.785068208892211050e-11 -5.916891757379159790e-15
1.342773437499993427e+01 -7.801211606179260583e-11 2.272477463038659950e-12
1.354980468750008704e+01 -7.808550702371251160e-11 4.570545549430923976e-12
1.367187500000006395e+01 -7.807317887160440632e-11 6.882018691328513217e-12
1.379394531250004086e+01 -7.797765764120123642e-11 9.201455112177479390e-12
1.391601562500001776e+01 -7.780150385605143953e-11 1.152412904505911605e-11
1.403808593749999467e+01 -7.754720134503428753e-11 1.384588535056471134e-11
1.416015624999997158e+01 -7.721711005511861621e-11 1.616298234615252125e-11
1.428222656249994849e+01 -7.681348163793419036e-11 1.847194701609484874e-11
1.440429687499992539e+01 -7.633852770234290320e-11 2.076946494732731428e-11
1.452636718750007994e+01 -7.579452280431503052e-11 2.305232229578995783e-11
1.464843750000005684e+01 -7.518391863684417483e-11 2.531740932501840727e-11
1.477050781250003375e+01 -7.450944343512924098e-11 2.756178547663887466e-11
1.489257812500001066e+01 -7.377416193522345341e-11 2.978279576680573101e-11
1.501464843749998757e+01 -7.298147645503110041e-11 3.197821901844936051e-11
1.513671874999996447e+01 -7.213505838401906412e-11 3.414642154498906617e-11
1.525878906249994138e+01 -7.123871054072920345e-11 3.628648674470411926e-11
1.538085937499991829e+01 -7.029617291957983342e-11 3.839829256587047728e-11
1.550292968750007105e+01 -6.931089533358357241e-11 4.048251522642664656e-11
1.562500000000004796e+01 -6.828580832669034405e-11 4.254054833238948387e-11
1.574707031250002487e+01 -6.722312668636918821e-11 4.457434016707115372e-11
1.586914062500000178e+01 -6.612421687261410632e-11 4.658616616580884585e-11
1.599121093749997868e+01 -6.498955063419646626e-11 4.857836578112557568e-11
1.611328124999995737e+01 -6.381875324068915317e-11 5.055308044837858581e-11
1.623535156249993250e+01 -6.261073847258159993e-11 5.251203026633437645e-11
1.635742187500008527e+01 -6.136390700459277362e-11 5.445636054228846609e-11
1.647949218750006395e+01 -6.007637344167308255e-11 5.638657642107035793e-11
1.660156250000003908e+01 -5.874618278167940750e-11 5.830256677815723954e-11
1.672363281250001776e+01 -5.737148088464973465e-11 6.020370110299014509e-11
1.684570312499999289e+01 -5.595061505379728500e-11 6.208896916669840817e-11
1.696777343749997158e+01 -5.448215770458124657e-11 6.395712634915668456e-11
1.708984374999994671e+01 -5.296486420049301313e-11 6.580680945030129576e-11
1.721191406249992539e+01 -5.139759087432336405e-11 6.763659824845747396e-11
1.733398437500007816e+01 -4.977920700108822978e-11 6.944501450115125864e-11
1.745605468750005329e+01 -4.810853297951696159e-11 7.123046794574205179e-11
1.757812500000003197e+01 -4.638432669866749507e-11 7.299117341951596645e-11
1.770019531250001066e+01 -4.460532378204901444e-11 7.472507017030223944e-11
1.782226562499998579e+01 -4.277032023331241349e-11 7.642977177202451138e-11
1.794433593749996447e+01 -4.087827291893300111e-11 7.810256381842798839e-11
1.806640624999993960e+01 -3.892838853857529507e-11 7.974044995594027836e-11
1.818847656249991829e+01 -3.692017694601330021e-11 8.134023058250453327e-11
1.831054687500007105e+01 -3.485345782334921524e-11 8.289858785908291170e-11
1.843261718750004619e+01 -3.272832688827736436e-11 8.441214913637012243e-11
1.855468750000002487e+01 -3.054510283120322773e-11 8.587750966060094667e-11
1.867675781250000000e+01 -2.830428354255134952e-11 8.729121103924188544e-11
1.879882812499997868e+01 -2.600653761873222936e-11 8.864968938164741538e-11
1.892089843749995381e+01 -2.365274449344043656e-11 8.994922025843281962e-11
1.904296874999993250e+01 -2.124407837982656208e-11 9.118589090251342730e-11
1.916503906250008527e+01 -1.878211438475053559e-11 9.235562260705033633e-11
1.928710937500006040e+01 -1.626892494978629068e-11 9.345425020465351342e-11
1.940917968750003908e+01 -1.370713599868267914e-11 9.447764573076694508e-11
1.953125000000001776e+01 -1.109992491724851819e-11 9.542185826295542240e-11
1.965332031249999289e+01 -8.450961223782503704e-12 9.628323672366969580e-11
1.977539062499997158e+01 -5.764309758521521329e-12 9.705850870341796910e-11
1.989746093749994671e+01 -3.044328115536870769e-12 9.774480543850161757e-11
2.001953124999992539e+01 -2.955887659431047647e-13 9.833964371920059808e-11
2.014160156250007816e+01 2.477156428195112621e-12 9.884089087493014465e-11
2.026367187500005329e+01 5.268971058629290841e-12 9.924674457360150765e-11
2.038574218750003197e+01 8.074710213864940658e-12 9.955575146062928843e-11
2.050781250000000711e+01 1.088901029095091354e-11 9.976686921947284996e-11
2.062988281249998579e+01 1.370632135303546010e-11 9.987955526891232335e-11
2.075195312499996092e+01 1.652099565264780786e-11 9.989385019191452581e-11
2.087402343749993960e+01 1.932742355288181979e-11 9.981041986452549576e-11
2.099609374999991473e+01 2.212018626167093636e-11 9.963053179723688010e-11
2.111816406250006750e+01 2.489418546409673927e-11 9.935596456980026600e-11
2.124023437500004619e+01 2.764471658713565139e-11 9.898887237897195147e-11
2.136230468750002132e+01 3.036747026012960147e-11 9.853164198588983592e-11
2.148437500000000000e+01 3.305847115201300668e-11 9.798678220636528354e-11
2.160644531249997868e+01 3.571398560745100270e-11 9.735687193610742331e-11
2.172851562499995381e+01 3.833043640752314783e-11 9.664456763758982895e-11
2.185058593749993250e+01 4.090435295379824815e-11 9.585264977913507526e-11
2.197265625000008527e+01 4.343236629895154669e-11 9.498407714032939357e-11
2.209472656250006040e+01 4.591123642596215819e-11 9.404202009945017575e-11
2.221679687500003908e+01 4.833788257573878324e-11 9.302986175777089675e-11
2.233886718750001421e+01 5.070938900869416715e-11 9.195118149990790188e-11
2.246093749999999289e+01 5.302297827291124226e-11 9.080975177322002756e-11
2.258300781249996803e+01 5.527596810603992188e-11 8.960957773121284598e-11
2.270507812499994671e+01 5.746574715831339007e-11 8.835499467761500792e-11
2.282714843749992184e+01 5.958981337695213740e-11 8.705081218306762214e-11
2.294921875000007461e+01 6.164590732585123052e-11 8.570246338922089864e-11
2.307128906250005329e+01 6.363224077733604482e-11 8.431610216557732291e-11
2.319335937500002842e+01 6.554778714762285711e-11 8.289860019858193365e-11
2.331542968750000711e+01 6.739258101918624405e-11 8.145742124813531355e-11
2.343749999999998579e+01 6.916797023230652421e-11 8.000037895733743681e-11
2.355957031249996092e+01 7.087677604822765908e-11 7.853531267316171755e-11
2.368164062499993960e+01 7.252334550570533063e-11 7.706973116078778589e-11
2.380371093749991473e+01 7.411351024943180311e-11 7.561046448862332407e-11
2.392578125000006750e+01 7.565447602521668243e-11 7.416333905752026647e-11
2.404785156250004619e+01 7.715465583193299002e-11 7.273287292087999484e-11
2.416992187500002132e+01 7.862344348772935365e-11 7.132198670987714925e-11
2.429199218750000000e+01 8.007091154678625372e-11 6.993173467895140140e-11
2.441406249999997513e+01 8.150741161739201850e-11 6.856108073183943599e-11
2.453613281249995381e+01 8.294306916369401000e-11 6.720677210737898179e-11
2.465820312499992895e+01 8.438720465928488830e-11 6.586337610210972393e-11
2.478027343750008171e+01 8.584775644306409873e-11 6.452352290680314872e-11
2.490234375000006040e+01 8.733079892861860379e-11 6.317835094646750079e-11
2.502441406250003553e+01 8.884023883478679230e-11 6.181810554700114683e-11
2.514648437500001421e+01 9.037774326063107713e-11 6.043280806985797203e-11
2.526855468749998934e+01 9.194291032899960591e-11 5.901289367375406151e-11
2.539062499999996803e+01 9.353364183794565803e-11 5.754972374910916022e-11
2.551269531249994671e+01 9.514664252283238171e-11 5.603591782074501459e-11
2.563476562499992184e+01 9.677797165628982766e-11 5.446549403561636505e-11
2.575683593750007461e+01 9.842359453013016856e-11 5.283382724335217972e-11
2.587890625000005329e+01 1.000798931842130591e-10 5.113743142886357662e-11
2.600097656250002842e+01 1.017440908628247538e-10 4.937357266399695491e-11
2.612304687500000711e+01 1.034145370787098768e-10 4.753972892768093358e-11
2.624511718749998224e+01 1.050907946487436167e-10 4.563292893934196614e-11
2.636718749999996092e+01 1.067734652282953352e-10 4.364902893726938266e-11
2.648925781249993605e+01 1.084637029336061847e-10 4.158203141949000039e-11
2.661132812500008882e+01 1.101624199127416722e-10 3.942359140930648310e-11
2.673339843750006750e+01 1.118692717954826344e-10 3.716285302956524762e-11
2.685546875000004263e+01 1.135815790443383387e-10 3.478670071824047836e-11
2.697753906250002132e+01 1.152933608173491810e-10 3.228042686043402697e-11
2.709960937499999645e+01 1.169946385420161226e-10 2.962874471067377819e-11
2.722167968749997513e+01 1.186711242878445504e-10 2.681701971295425201e-11
2.734374999999995381e+01 1.203043464463352094e-10 2.383255586880706962e-11
2.746582031249992895e+01 1.218721893793195723e-10 2.066577283209197184e-11
2.758789062500008171e+01 1.233497649087260794e-10 1.731114927166967209e-11
2.770996093750006040e+01 1.247105154550577961e-10 1.376785906219660983e-11
2.783203125000003553e+01 1.259274530733038103e-10 1.004005391041504931e-11
2.795410156250001421e+01 1.269744276972461821e-10 6.136754872510589511e-12
2.807617187499998934e+01 1.278272873065699151e-10 2.071343287398293354e-12
2.819824218749996803e+01 1.284647777178037865e-10 -2.139295742545811375e-12
2.832031249999994316e+01 1.288690573823621267e-10 -6.475853326415574638e-12
2.844238281249992184e+01 1.290257639377220919e-10 -1.091772805695616229e-11
2.856445312500007461e+01 1.289236448541421147e-10 -1.544401703698915111e-11
2.868652343750004974e+01 1.285538502946731646e-10 -2.003418476122986345e-11
2.880859375000002842e+01 1.279090740062214542e-10 -2.466828336343820164e-11
2.893066406250000355e+01 1.269827798696915363e-10 -2.932670776451229402e-11
2.905273437499998224e+01 1.257687261013597108e-10 -3.398959805585755286e-11
2.917480468749995737e+01 1.242609021322121124e-10 -3.863608554612424430e-11
2.929687499999993605e+01 1.224538807793185126e-10 -4.324358714065948489e-11
2.941894531250008882e+01 1.203435100207254416e-10 -4.778731069175834625e-11
2.954101562500006750e+01 1.179278271614743856e-10 -5.224008276006865210e-11
2.966308593750004263e+01 1.152080521730613145e-10 -5.657256060528453681e-11
2.978515625000002132e+01 1.121895040403926385e-10 -6.075383138577472160e-11
2.990722656249999645e+01 1.088822992750679450e-10 -6.475233845796364928e-11
3.002929687499997513e+01 1.053017341274831439e-10 -6.853703073030342411e-11
3.015136718749995026e+01 1.014682974839550766e-10 -7.207861456548659314e-11
3.027343749999992895e+01 9.740729684975071951e-11 -7.535078022123656478e-11
3.039550781250008171e+01 9.314812199196785438e-11 -7.833126383719718948e-11
3.051757812500005684e+01 8.872323596273246198e-11 -8.100261304614370908e-11
3.063964843750003553e+01 8.416704884295660823e-11 -8.335258043350471006e-11
3.076171875000001066e+01 7.951484703576713952e-11 -8.537416669782312198e-11
3.088378906249998934e+01 7.480189867869635453e-11 -8.706542281010055747e-11
3.100585937499996447e+01 7.006276523286694405e-11 -8.842914998003507734e-11
3.112792968749994316e+01 6.533077298634859491e-11 -8.947260630345317962e-11
3.124999999999992184e+01 6.063756187762190954e-11 -9.020727308761674168e-11
3.137207031250007461e+01 5.601262536040548695e-11 -9.064867934757811236e-11
3.149414062500004974e+01 5.148277291005758003e-11 -9.081623543488002957e-11
3.161621093750002842e+01 4.707148788544114441e-11 -9.073299054605444118e-11
3.173828125000000355e+01 4.279821431438119745e-11 -9.042522218141336104e-11
3.186035156249998224e+01 3.867766042124617527e-11 -8.992180199095408645e-11
